Potential (V),Current (µA)
0.0,-6.11125
0.001,-5.892916
0.002,-5.703333
0.003,-5.540833
0.004,-5.367083
0.005,-5.2204165
0.006,-5.0829167
0.007,-4.978333
0.008,-4.84875
0.009,-4.75625
0.01,-4.6495833
0.011,-4.5512505
0.012,-4.43875
0.013,-4.33125
0.014,-4.2225003
0.015,-4.105
0.016,-4.01125
0.017,-3.945
0.018,-3.877083
0.019,-3.7762501
0.02,-3.6720836
0.021,-3.5733335
0.022,-3.51
0.023,-3.4475
0.024,-3.3649998
0.025,-3.3004167
0.026,-3.205
0.027,-3.1537502
0.028,-3.0729167
0.029,-3.0037498
0.03,-2.9258335
0.031,-2.8466666
0.032,-2.7925003
0.033,-2.7262504
0.034,-2.6391668
0.035,-2.56375
0.036,-2.5154169
0.037,-2.4783335
0.038,-2.4375
0.039,-2.3495834
0.04,-2.2791667
0.041,-2.2020833
0.042,-2.1466665
0.043,-2.09
0.044,-2.0175
0.045,-1.9841666
0.046,-1.96
0.047,-1.9095834
0.048,-1.8241667
0.049,-1.74375
0.05,-1.7070833
0.051,-1.6700001
0.052,-1.6091667
0.053,-1.56625
0.054,-1.5145832
0.055,-1.4833332
0.056,-1.4087499
0.057,-1.3474998
0.058,-1.2937499
0.059,-1.2375001
0.06,-1.1879166
0.061,-1.1345834
0.062,-1.0908333
0.063,-1.0658334
0.064,-1.0083333
0.065,-0.9791667
0.066,-0.9291666
0.067,-0.88124996
0.068,-0.83458334
0.069,-0.76916665
0.07,-0.74541664
0.071,-0.6958334
0.072,-0.64708334
0.073,-0.5995833
0.074,-0.5529167
0.075,-0.53541666
0.076,-0.48750004
0.077,-0.4316667
0.078,-0.39
0.079,-0.34791663
0.08,-0.30875
0.081,-0.24083334
0.082,-0.19500001
0.083,-0.17041667
0.084,-0.13083334
0.085,-0.081250004
0.086,-0.021249996
0.087,0.02833333
0.088,0.07583333
0.089,0.117916666
0.09,0.16958334
0.091,0.17416666
0.092,0.22041667
0.093,0.25041667
0.094,0.32874998
0.095,0.37666667
0.096,0.4041667
0.097,0.46708333
0.098,0.49249998
0.099,0.53333336
0.1,0.5508334
0.101,0.58750004
0.102,0.6558333
0.103,0.7
0.104,0.7483333
0.105,0.7795834
0.106,0.8129167
0.107,0.8645833
0.108,0.90958333
0.109,0.96208334
0.11,0.9870834
0.111,1.0291667
0.112,1.0720834
0.113,1.12375
0.114,1.16625
0.115,1.2175
0.116,1.2487501
0.117,1.2975
0.118,1.32125
0.119,1.38125
0.12,1.4187502
0.121,1.4570833
0.122,1.5183333
0.123,1.5641667
0.124,1.6208334
0.125,1.6654167
0.126,1.70375
0.127,1.725
0.128,1.7395834
0.129,1.7704166
0.13,1.8562499
0.131,1.9095834
0.132,1.9716667
0.133,2.0062501
0.134,2.06375
0.135,2.1200001
0.136,2.1658335
0.137,2.1970835
0.138,2.235
0.139,2.2666667
0.14,2.345
0.141,2.405
0.142,2.4708335
0.143,2.5066667
0.144,2.5329165
0.145,2.5874999
0.146,2.6154165
0.147,2.6666667
0.148,2.70375
0.149,2.7658331
0.15,2.8179166
0.151,2.8537502
0.152,2.9083335
0.153,2.9783332
0.154,3.0454166
0.155,3.08125
0.156,3.125
0.157,3.185417
0.158,3.2512503
0.159,3.2795837
0.16,3.3254166
0.161,3.39625
0.162,3.4658334
0.163,3.5404167
0.164,3.5641668
0.165,3.6191666
0.166,3.6583335
0.167,3.7366664
0.168,3.8149998
0.169,3.8725002
0.17,3.9258335
0.171,3.9908333
0.172,4.054167
0.173,4.132917
0.174,4.1545835
0.175,4.2145834
0.176,4.2604165
0.177,4.3258333
0.178,4.414583
0.179,4.455
0.18,4.5454164
0.181,4.5775
0.182,4.6516666
0.183,4.7054167
0.184,4.7725
0.185,4.855417
0.186,4.9408336
0.187,5.004167
0.188,5.0783334
0.189,5.1283336
0.19,5.20375
0.191,5.232917
0.192,5.2941666
0.193,5.3500004
0.194,5.435833
0.195,5.5220833
0.196,5.6091666
0.197,5.68125
0.198,5.7479167
0.199,5.8170834
0.2,5.8908334
0.201,5.96875
0.202,6.0295835
0.203,6.11875
0.204,6.1762505
0.205,6.26125
0.206,6.3312497
0.207,6.425833
0.208,6.5125003
0.209,6.5941663
0.21,6.641249
0.211,6.7220836
0.212,6.7920833
0.213,6.9154167
0.214,6.997083
0.215,7.085417
0.216,7.1650004
0.217,7.2475
0.218,7.3529167
0.219,7.4308333
0.22,7.5175004
0.221,7.5958333
0.222,7.6858335
0.223,7.78375
0.224,7.8916664
0.225,7.9887505
0.226,8.098334
0.227,8.165833
0.228,8.25125
0.229,8.34
0.23,8.431666
0.231,8.545834
0.232,8.63375
0.233,8.74875
0.234,8.872916
0.235,8.9783325
0.236,9.111667
0.237,9.188333
0.238,9.308333
0.239,9.386666
0.24,9.48375
0.241,9.607083
0.242,9.7300005
0.243,9.863334
0.244,9.955833
0.245,10.052083
0.246,10.14875
0.247,10.263334
0.248,10.403333
0.249,10.532084
0.25,10.64375
0.251,10.766666
0.252,10.904583
0.253,11.041667
0.254,11.186666
0.255,11.277083
0.256,11.425418
0.257,11.510834
0.258,11.645
0.259,11.783334
0.26,11.940417
0.261,12.113334
0.262,12.22125
0.263,12.365833
0.264,12.517083
0.265,12.634583
0.266,12.762084
0.267,12.896249
0.268,13.065833
0.269,13.231667
0.27,13.37625
0.271,13.549167
0.272,13.7074995
0.273,13.834583
0.274,13.977084
0.275,14.092916
0.276,14.276668
0.277,14.440417
0.278,14.627915
0.279,14.81
0.28,14.982083
0.281,15.1466675
0.282,15.294167
0.283,15.439167
0.284,15.602501
0.285,15.74625
0.286,15.920833
0.287,16.12
0.288,16.305416
0.289,16.495
0.29,16.660418
0.291,16.85125
0.292,17.021667
0.293,17.180834
0.294,17.360834
0.295,17.529167
0.296,17.735832
0.297,17.937918
0.298,18.144167
0.299,18.319584
0.3,18.4975
0.301,18.657084
0.302,18.850834
0.303,19.018333
0.304,19.231249
0.305,19.417084
0.306,19.625418
0.307,19.825417
0.308,20.005835
0.309,20.205
0.31,20.39
0.311,20.589584
0.312,20.777502
0.313,20.974585
0.314,21.1975
0.315,21.385416
0.316,21.596666
0.317,21.8125
0.318,22.047083
0.319,22.248335
0.32,22.445
0.321,22.657082
0.322,22.895416
0.323,23.09125
0.324,23.309168
0.325,23.531668
0.326,23.764585
0.327,23.985834
0.328,24.17
0.329,24.373331
0.33,24.55625
0.331,24.795416
0.332,25.04875
0.333,25.289167
0.334,25.52625
0.335,25.761667
0.336,26.007086
0.337,26.236252
0.338,26.420832
0.339,26.637083
0.34,26.855417
0.341,27.112501
0.342,27.380835
0.343,27.605833
0.344,27.865
0.345,28.106249
0.346,28.392502
0.347,28.645834
0.348,28.879583
0.349,29.110834
0.35,29.363749
0.351,29.632086
0.352,29.902084
0.353,29.521666
0.354,29.231667
0.355,28.983332
0.356,29.362501
0.357,29.670832
0.358,29.991667
0.359,30.341665
0.36,30.6875
0.361,31.025
0.362,31.341667
0.363,31.691666
0.364,31.991667
0.365,32.308334
0.366,32.57083
0.367,32.87917
0.368,33.1875
0.369,33.516666
0.37,33.833332
0.371,34.158337
0.372,34.5
0.373,34.816666
0.374,35.07083
0.375,35.36667
0.376,35.633335
0.377,35.97083
0.378,36.279163
0.379,36.616665
0.38,36.962498
0.381,37.287502
0.382,37.63333
0.383,37.941666
0.384,38.24583
0.385,38.591663
0.386,38.916668
0.387,39.274998
0.388,39.57083
0.389,39.912502
0.39,40.208332
0.391,40.541668
0.392,40.875
0.393,41.204166
0.394,41.516666
0.395,41.825
0.396,42.175003
0.397,42.55
0.398,42.908337
0.399,43.2625
0.4,43.620834
0.401,43.9875
0.402,44.3
0.403,44.595837
0.404,44.891663
0.405,45.24583
0.406,45.587498
0.407,45.933334
0.408,46.316666
0.409,46.699997
0.41,47.091663
0.411,47.37083
0.412,47.675
0.413,47.9875
0.414,48.345837
0.415,48.7
0.416,49.045834
0.417,49.395832
0.418,49.75
0.419,50.108337
0.42,50.458332
0.421,50.795834
0.422,51.129166
0.423,51.475002
0.424,51.833332
0.425,52.183334
0.426,52.5625
0.427,52.912502
0.428,53.270832
0.429,53.56667
0.43,53.870834
0.431,54.19167
0.432,54.5625
0.433,54.94583
0.434,55.32083
0.435,55.670834
0.436,56.0125
0.437,56.354168
0.438,56.670834
0.439,56.974995
0.44,57.274998
0.441,57.649998
0.442,57.983334
0.443,58.341663
0.444,58.65833
0.445,59.033337
0.446,59.358337
0.447,59.654163
0.448,59.912502
0.449,60.191666
0.45,60.516666
0.451,60.887497
0.452,61.212498
0.453,61.533337
0.454,61.8125
0.455,62.129166
0.456,62.4375
0.457,62.712498
0.458,63.004166
0.459,63.308334
0.46,63.658337
0.461,64.004166
0.462,64.299995
0.463,64.60834
0.464,64.887505
0.465,65.208336
0.466,65.479164
0.467,65.75417
0.468,65.987495
0.469,66.25833
0.47,66.54583
0.471,66.85
0.472,67.13333
0.473,67.40417
0.474,67.674995
0.475,67.887505
0.476,68.11667
0.477,68.37083
0.478,68.65833
0.479,68.950005
0.48,69.20417
0.481,69.51667
0.482,69.75833
0.483,70.0375
0.484,70.237495
0.485,70.470825
0.486,70.69166
0.487,70.9375
0.488,71.18333
0.489,71.424995
0.49,71.67083
0.491,71.925
0.492,72.17084
0.493,72.370834
0.494,72.583336
0.495,72.78333
0.496,73.0375
0.497,73.25416
0.498,73.475
0.499,73.683334
0.5,73.89166
0.501,74.075005
0.502,74.237495
0.503,74.387505
0.504,74.55417
0.505,74.729164
0.506,74.958336
0.507,75.166664
0.508,75.38334
0.509,75.5625
0.51,75.775
0.511,75.92916
0.512,76.09167
0.513,76.200005
0.514,76.4375
0.515,76.60833
0.516,76.862495
0.517,76.995834
0.518,77.183334
0.519,77.30833
0.52,77.48333
0.521,77.583336
0.522,77.691666
0.523,77.799995
0.524,77.95416
0.525,78.13333
0.526,78.299995
0.527,78.49167
0.528,78.637505
0.529,78.80833
0.53,78.88333
0.531,78.979164
0.532,79.049995
0.533,79.17917
0.534,79.32917
0.535,79.45417
0.536,79.61666
0.537,79.7875
0.538,79.9375
0.539,80.0375
0.54,80.05417
0.541,80.10417
0.542,80.229164
0.543,80.34167
0.544,80.52917
0.545,80.6375
0.546,80.77917
0.547,80.85
0.548,80.887505
0.549,80.96667
0.55,81.0375
0.551,81.14583
0.552,81.25833
0.553,81.35833
0.554,81.46667
0.555,81.55417
0.556,81.6625
0.557,81.729164
0.558,81.762505
0.559,81.81667
0.56,81.92917
0.561,82.041664
0.562,82.112495
0.563,82.2
0.564,82.32083
0.565,82.45833
0.566,82.49166
0.567,82.487495
0.568,82.487495
0.569,82.57083
0.57,82.67083
0.571,82.737495
0.572,82.8375
0.573,82.933334
0.574,83.02917
0.575,83.041664
0.576,83.04583
0.577,83.09167
0.578,83.154175
0.579,83.225006
0.58,83.325005
0.581,83.416664
0.582,83.49584
0.583,83.512505
0.584,83.54583
0.585,83.558334
0.586,83.5625
0.587,83.5875
0.588,83.67916
0.589,83.76667
0.59,83.85
0.591,83.895836
0.592,83.9625
0.593,84.00833
0.594,83.99167
0.595,84.00833
0.596,84.00833
0.597,84.104164
0.598,84.13333
0.599,84.19166
0.6,84.23333
0.601,84.275
0.602,84.31666
0.603,84.308334
0.604,84.32084
0.605,84.4
0.606,84.475
0.607,84.57917
0.608,84.6
0.609,84.63333
0.61,84.67917
0.611,84.754166
0.612,84.78333
0.613,84.80834
0.614,84.816666
0.615,84.916664
0.616,84.941666
0.617,85.00417
0.618,85.0625
0.619,85.13334
0.62,85.1875
0.621,85.166664
0.622,85.17916
0.623,85.19167
0.624,85.25
0.625,85.34167
0.626,85.40833
0.627,85.458336
0.628,85.51666
0.629,85.56667
0.63,85.59167
0.631,85.595825
0.632,85.61251
0.633,85.72083
0.634,85.76666
0.635,85.833336
0.636,85.88333
0.637,85.97083
0.638,86.05833
0.639,86.05833
0.64,86.1
0.641,86.15
0.642,86.24167
0.643,86.30833
0.644,86.37917
0.645,86.458336
0.646,86.55833
0.647,86.595825
0.648,86.666664
0.649,86.65417
0.65,86.70416
0.651,86.77917
0.652,86.85833
0.653,86.96667
0.654,87.01666
0.655,87.125
0.656,87.19584
0.657,87.26666
0.658,87.32083
0.659,87.34583
0.66,87.42501
0.661,87.49167
0.662,87.591675
0.663,87.69583
0.664,87.7875
0.665,87.87917
0.666,87.94583
0.667,88.01666
0.668,88.0625
0.669,88.137505
0.67,88.22083
0.671,88.3375
0.672,88.4125
0.673,88.549995
0.674,88.658325
0.675,88.791664
0.676,88.86666
0.677,88.958336
0.678,89.07499
0.679,89.19583
0.68,89.333336
0.681,89.4125
0.682,89.50417
0.683,89.62083
0.684,89.78333
0.685,89.87083
0.686,89.96667
0.687,90.02917
0.688,90.229164
0.689,90.35
0.69,90.479164
0.691,90.5875
0.692,90.7125
0.693,90.88333
0.694,90.95416
0.695,91.04584
0.696,91.11667
0.697,91.270836
0.698,91.424995
0.699,91.5625
0.7,91.67084
0.701,91.82083
0.702,91.950005
0.703,92.083336
0.704,92.19583
0.705,92.28333
0.706,92.4375
0.707,92.57916
0.708,92.75
0.709,92.916664
0.71,93.0625
0.711,93.237495
0.712,93.354164
0.713,93.43333
0.714,93.529175
0.715,93.65833
0.716,93.8375
0.717,94.00416
0.718,94.145836
0.719,94.30833
0.72,94.46667
0.721,94.645836
0.722,94.74583
0.723,94.862495
0.724,94.99167
0.725,95.162506
0.726,95.34583
0.727,95.52917
0.728,95.70416
0.729,95.88333
0.73,96.020836
0.731,96.1625
0.732,96.23334
0.733,96.350006
0.734,96.520836
0.735,96.69584
0.736,96.86667
0.737,97.025
0.738,97.18333
0.739,97.35
0.74,97.37917
0.741,97.46667
0.742,97.55833
0.743,97.75833
0.744,97.9375
0.745,98.075005
0.746,98.24167
0.747,98.38333
0.748,98.52917
0.749,98.62083
0.75,98.729164
0.751,98.85834
0.752,99.01666
0.753,99.17084
0.754,99.325005
0.755,99.487495
0.756,99.67083
0.757,99.80417
0.758,99.87083
0.759,99.96667
0.76,100.09167
0.761,100.26666
0.762,100.44166
0.763,100.57499
0.764,100.75833
0.765,100.850006
0.766,100.99583
0.767,101.0625
0.768,101.13749
0.769,101.24583
0.77,101.399994
0.771,101.595825
0.772,101.78333
0.773,101.958336
0.774,102.145836
0.775,102.262505
0.776,102.40417
0.777,102.44583
0.778,102.541664
0.779,102.604164
0.78,102.725006
0.781,102.779175
0.782,102.90833
0.783,103.025
0.784,103.19583
0.785,103.3125
0.786,103.41251
0.787,103.53333
0.788,103.62917
0.789,103.75833
0.79,103.85834
0.791,103.9625
0.792,104.0875
0.793,104.18333
0.794,104.287506
0.795,104.333336
0.796,104.43751
0.797,104.54584
0.798,104.654175
0.799,104.762505
0.8,104.875
0.801,105.01666
0.802,105.149994
0.803,105.24167
0.804,105.291664
0.805,105.35833
0.806,105.416664
0.807,105.533325
0.808,105.612495
0.809,105.69583
0.81,105.783325
0.811,105.833336
0.812,105.94166
0.813,105.99583
0.814,106.05833
0.815,106.12083
0.816,106.19167
0.817,106.2875
0.818,106.39166
0.819,106.520836
0.82,106.65417
0.821,106.725
0.822,106.74584
0.823,106.762505
0.824,106.80834
0.825,106.92084
0.826,107.0
0.827,107.0875
0.828,107.1875
0.829,107.25834
0.83,107.3125
0.831,107.291664
0.832,107.32083
0.833,107.354164
0.834,107.43333
0.835,107.50416
0.836,107.595825
0.837,107.69583
0.838,107.80416
0.839,107.84583
0.84,107.9125
0.841,107.90417
0.842,107.94167
0.843,107.924995
0.844,107.98751
0.845,108.00834
0.846,108.07084
0.847,108.10834
0.848,108.20416
0.849,108.24583
0.85,108.24166
0.851,108.225
0.852,108.23751
0.853,108.34167
0.854,108.38333
0.855,108.43333
0.856,108.475
0.857,108.520836
0.858,108.5875
0.859,108.541664
0.86,108.541664
0.861,108.52917
0.862,108.583336
0.863,108.666664
0.864,108.6875
0.865,108.708336
0.866,108.72083
0.867,108.770836
0.868,108.7875
0.869,108.762505
0.87,108.708336
0.871,108.729164
0.872,108.770836
0.873,108.86667
0.874,108.90417
0.875,108.958336
0.876,108.975
0.877,108.97083
0.878,108.95416
0.879,108.950005
0.88,108.99166
0.881,109.041664
0.882,109.041664
0.883,109.06667
0.884,109.07499
0.885,109.125
0.886,109.125
0.887,109.09583
0.888,109.11251
0.889,109.13333
0.89,109.1875
0.891,109.19584
0.892,109.17084
0.893,109.19999
0.894,109.23334
0.895,109.26666
0.896,109.21667
0.897,109.162506
0.898,109.19167
0.899,109.229164
0.9,109.2875
0.901,109.325005
0.902,109.362495
0.903,109.39166
0.904,109.416664
0.905,109.40833
0.906,109.416664
0.907,109.35833
0.908,109.375
0.909,109.362495
0.91,109.40833
0.911,109.45416
0.912,109.48334
0.913,109.549995
0.914,109.520836
0.915,109.50417
0.916,109.46667
0.917,109.47083
0.918,109.525
0.919,109.59585
0.92,109.64167
0.921,109.67501
0.922,109.65417
0.923,109.65835
0.924,109.61667
0.925,109.61667
0.926,109.64166
0.927,109.708336
0.928,109.76666
0.929,109.8375
0.93,109.841675
0.931,109.9
0.932,109.887505
0.933,109.9375
0.934,109.916664
0.935,109.93333
0.936,109.979164
0.937,110.041664
0.938,110.154175
0.939,110.2125
0.94,110.24584
0.941,110.2125
0.942,110.200005
0.943,110.225
0.944,110.3125
0.945,110.341675
0.946,110.40417
0.947,110.44999
0.948,110.54583
0.949,110.583336
0.95,110.56249
0.951,110.57916
0.952,110.63333
0.953,110.72083
0.954,110.85
0.955,110.916664
0.956,110.99167
0.957,111.02917
0.958,111.083336
0.959,111.11251
0.96,111.075005
0.961,111.12083
0.962,111.19583
0.963,111.283325
0.964,111.36666
0.965,111.40833
0.966,111.487495
0.967,111.512505
0.968,111.6
0.969,111.666664
0.97,111.73751
0.971,111.8125
0.972,111.88749
0.973,111.96667
0.974,112.0375
0.975,112.104164
0.976,112.1875
0.977,112.29583
0.978,112.34583
0.979,112.40417
0.98,112.45416
0.981,112.6
0.982,112.69584
0.983,112.787506
0.984,112.86667
0.985,112.950005
0.986,113.07499
0.987,113.137505
0.988,113.20416
0.989,113.25833
0.99,113.362495
0.991,113.470825
0.992,113.59583
0.993,113.69999
0.994,113.875
0.995,114.00417
0.996,114.07916
0.997,114.15833
0.998,114.200005
0.999,114.35
1.0,114.49583
1.001,114.67084
1.002,114.854164
1.003,114.979164
1.004,115.14166
1.005,115.262505
1.006,115.36667
1.007,115.45416
1.008,115.55833
1.009,115.729164
1.01,115.90417
1.011,116.049995
1.012,116.200005
1.013,116.341675
1.014,116.479164
1.015,116.604164
1.016,116.76666
1.017,116.987495
1.018,117.137505
1.019,117.30417
1.02,117.475
1.021,117.65833
1.022,117.82084
1.023,117.87083
1.024,118.020836
1.025,118.1875
1.026,118.387505
1.027,118.575005
1.028,118.729164
1.029,118.950005
1.03,119.14166
1.031,119.32084
1.032,119.520836
1.033,119.645836
1.034,119.80833
1.035,119.975
1.036,120.20416
1.037,120.42501
1.038,120.604164
1.039,120.8125
1.04,121.02917
1.041,121.262505
1.042,121.4625
1.043,121.637505
1.044,121.84167
1.045,122.05833
1.046,122.291664
1.047,122.533325
1.048,122.79584
1.049,123.07083
1.05,123.29583
1.051,123.44582
1.052,123.60834
1.053,123.7875
1.054,124.0625
1.055,124.25833
1.056,124.541664
1.057,124.76667
1.058,125.06667
1.059,125.291664
1.06,125.541664
1.061,125.74167
1.062,125.987495
1.063,126.262505
1.064,126.57916
1.065,126.87917
1.066,127.18333
1.067,127.475
1.068,127.791664
1.069,128.0
1.07,128.22499
1.071,128.40416
1.072,128.70833
1.073,129.04167
1.074,129.39583
1.075,129.74583
1.076,130.04584
1.077,130.33751
1.078,130.55
1.079,130.77083
1.08,131.06667
1.081,131.4
1.082,131.75
1.083,132.03334
1.084,132.34999
1.085,132.70001
1.086,133.02083
1.087,133.27501
1.088,133.59999
1.089,133.92082
1.09,134.30833
1.091,134.60417
1.092,134.9625
1.093,135.29584
1.094,135.6375
1.095,135.95
1.096,136.33751
1.097,136.61665
1.098,136.95
1.099,137.2375
1.1,137.69582
1.101,138.0875
1.102,138.40834
1.103,138.72499
1.104,139.05415
1.105,139.47917
1.106,139.8125
1.107,140.17915
1.108,140.53333
1.109,140.92084
1.11,141.30833
1.111,141.74583
1.112,142.14583
1.113,142.55833
1.114,142.94167
1.115,143.27501
1.116,143.60417
1.117,143.86665
1.118,144.27916
1.119,144.65834
1.12,145.09583
1.121,145.54584
1.122,145.97084
1.123,146.45833
1.124,146.82082
1.125,147.25
1.126,147.62917
1.127,148.05833
1.128,148.52083
1.129,148.98334
1.13,149.4875
1.131,149.95833
1.132,150.41667
1.133,150.84999
1.134,151.2125
1.135,151.59166
1.136,152.02917
1.137,152.52083
1.138,153.05
1.139,153.57085
1.14,154.09583
1.141,154.6125
1.142,154.99167
1.143,155.41249
1.144,155.8
1.145,156.3125
1.146,156.84167
1.147,157.3625
1.148,157.92918
1.149,158.47499
1.15,159.01668
1.151,159.475
1.152,159.96251
1.153,160.425
1.154,160.98334
1.155,161.50833
1.156,162.08751
1.157,162.6125
1.158,163.17499
1.159,163.73749
1.16,164.29582
1.161,164.7625
1.162,165.27917
1.163,165.82918
1.164,166.52917
1.165,167.15001
1.166,167.74167
1.167,168.27501
1.168,168.85834
1.169,169.46666
1.17,169.9375
1.171,170.47917
1.172,171.10834
1.173,171.825
1.174,172.53333
1.175,173.17915
1.176,173.85832
1.177,174.50835
1.178,175.14998
1.179,175.7375
1.18,176.32085
1.181,176.94585
1.182,177.65417
1.183,178.39166
1.184,179.11665
1.185,179.82916
1.186,180.57085
1.187,181.3125
1.188,181.97083
1.189,182.64168
1.19,183.33751
1.191,184.22084
1.192,185.07916
1.193,185.92084
1.194,186.74165
1.195,187.58748
1.196,188.45416
1.197,189.2375
1.198,190.01666
1.199,190.8625
1.2,191.76668
1.201,192.70833
1.202,193.6125
1.203,194.50835
1.204,195.40001
1.205,196.35002
1.206,197.22502
1.207,198.12917
1.208,198.94585
1.209,199.95416
1.21,200.89583
1.211,201.97499
1.212,203.09583
1.213,204.24168
1.214,205.38335
1.215,206.27917
1.216,207.24583
1.217,208.16667
1.218,209.27501
1.219,210.38335
1.22,211.48334
1.221,212.60417
1.222,213.71252
1.223,214.87917
1.224,216.1375
1.225,217.25832
1.226,218.35417
1.227,219.3875
1.228,220.65001
1.229,221.98332
1.23,223.325
1.231,224.59583
1.232,225.8625
1.233,227.10417
1.234,228.31667
1.235,229.52083
1.236,230.77501
1.237,232.19167
1.238,233.59167
1.239,235.08752
1.24,236.52083
1.241,237.98334
1.242,239.39583
1.243,240.69167
1.244,242.09167
1.245,243.44585
1.246,244.97917
1.247,246.4375
1.248,247.98749
1.249,249.52083
1.25,251.07085
1.251,252.60417
1.252,254.08751
1.253,255.60417
1.254,257.15414
1.255,258.80417
1.256,260.5375
1.257,262.24582
1.258,264.02084
1.259,265.75
1.26,267.57498
1.261,269.17502
1.262,270.82083
1.263,272.4917
1.264,274.29172
1.265,276.08752
1.266,277.8125
1.267,279.72083
1.268,281.55417
1.269,283.44998
1.27,285.2083
1.271,286.95
1.272,288.73752
1.273,290.5625
1.274,292.56668
1.275,294.51666
1.276,296.53336
1.277,298.5875
1.278,295.92084
1.279,293.125
1.28,290.29166
1.281,292.29166
1.282,294.54166
1.283,296.83334
1.284,298.91666
1.285,301.0
1.286,303.125
1.287,305.5
1.288,307.83334
1.289,309.91666
