Potential (V),Current (µA)
0.0,-6.5600004
0.001,-6.304167
0.002,-6.082083
0.003,-5.9079165
0.004,-5.7570834
0.005,-5.61
0.006,-5.4562497
0.007,-5.31375
0.008,-5.18125
0.009,-5.0716667
0.01,-4.9658337
0.011,-4.86875
0.012,-4.7725
0.013,-4.6566663
0.014,-4.5341663
0.015,-4.4233336
0.016,-4.3266664
0.017,-4.2554164
0.018,-4.15875
0.019,-4.05625
0.02,-3.9662502
0.021,-3.8695831
0.022,-3.7808332
0.023,-3.675
0.024,-3.6066666
0.025,-3.54
0.026,-3.46125
0.027,-3.3933334
0.028,-3.3083334
0.029,-3.2345831
0.03,-3.1570833
0.031,-3.0941665
0.032,-3.0229166
0.033,-2.93875
0.034,-2.8470833
0.035,-2.7883332
0.036,-2.69625
0.037,-2.6425002
0.038,-2.5608335
0.039,-2.4975002
0.04,-2.4345834
0.041,-2.3758333
0.042,-2.3508332
0.043,-2.27375
0.044,-2.2070835
0.045,-2.1454165
0.046,-2.1166668
0.047,-2.0704167
0.048,-1.9916667
0.049,-1.9095834
0.05,-1.8441668
0.051,-1.7858334
0.052,-1.7199999
0.053,-1.6791668
0.054,-1.6345835
0.055,-1.5870833
0.056,-1.5195833
0.057,-1.4541665
0.058,-1.4162499
0.059,-1.375
0.06,-1.3433332
0.061,-1.2716666
0.062,-1.2020833
0.063,-1.1491667
0.064,-1.1125001
0.065,-1.0758334
0.066,-1.0070833
0.067,-0.95000005
0.068,-0.89750004
0.069,-0.8533333
0.07,-0.8041666
0.071,-0.76375
0.072,-0.7029167
0.073,-0.67833334
0.074,-0.615
0.075,-0.56
0.076,-0.49
0.077,-0.44250003
0.078,-0.40708336
0.079,-0.34208336
0.08,-0.2904167
0.081,-0.23291667
0.082,-0.1925
0.083,-0.14666666
0.084,-0.10541666
0.085,-0.06666667
0.086,-0.008749999
0.087,0.052916665
0.088,0.087500006
0.089,0.13333334
0.09,0.17875
0.091,0.22666667
0.092,0.26208332
0.093,0.30708334
0.094,0.37625
0.095,0.45374998
0.096,0.49458334
0.097,0.54
0.098,0.5679167
0.099,0.60583335
0.1,0.6483333
0.101,0.7075
0.102,0.7716667
0.103,0.82375
0.104,0.865
0.105,0.91708326
0.106,0.97125
0.107,1.02
0.108,1.0608333
0.109,1.11375
0.11,1.17125
0.111,1.2312499
0.112,1.2779166
0.113,1.3291667
0.114,1.3566666
0.115,1.4308333
0.116,1.4829167
0.117,1.5366668
0.118,1.5483333
0.119,1.5733334
0.12,1.63375
0.121,1.7004166
0.122,1.7516667
0.123,1.8054167
0.124,1.86
0.125,1.9254166
0.126,1.9425001
0.127,1.9720834
0.128,2.0116665
0.129,2.07
0.13,2.1170833
0.131,2.1499999
0.132,2.21625
0.133,2.27125
0.134,2.3608334
0.135,2.4158332
0.136,2.4641666
0.137,2.4866667
0.138,2.5370834
0.139,2.60125
0.14,2.6666667
0.141,2.7387497
0.142,2.787917
0.143,2.8466666
0.144,2.87
0.145,2.9358337
0.146,2.9616668
0.147,3.0295837
0.148,3.07625
0.149,3.1454165
0.15,3.2083333
0.151,3.2554169
0.152,3.3370836
0.153,3.3941667
0.154,3.4854167
0.155,3.5204165
0.156,3.5670834
0.157,3.5999997
0.158,3.6641667
0.159,3.7354167
0.16,3.8075001
0.161,3.8679168
0.162,3.9154167
0.163,3.9704163
0.164,4.0316663
0.165,4.0920835
0.166,4.1408334
0.167,4.2116666
0.168,4.2920833
0.169,4.346667
0.17,4.412083
0.171,4.473333
0.172,4.568333
0.173,4.619583
0.174,4.6820836
0.175,4.7495837
0.176,4.815417
0.177,4.883333
0.178,4.9325
0.179,5.0129166
0.18,5.087917
0.181,5.1729164
0.182,5.2400002
0.183,5.3079166
0.184,5.361666
0.185,5.4545836
0.186,5.5124993
0.187,5.6129165
0.188,5.6691666
0.189,5.767916
0.19,5.820417
0.191,5.8775
0.192,5.932083
0.193,6.01625
0.194,6.103333
0.195,6.187083
0.196,6.2466664
0.197,6.316667
0.198,6.3933334
0.199,6.462917
0.2,6.5670834
0.201,6.6299996
0.202,6.7275004
0.203,6.7999997
0.204,6.8933334
0.205,6.9779167
0.206,7.072084
0.207,7.1475005
0.208,7.24375
0.209,7.3025
0.21,7.3887506
0.211,7.4466667
0.212,7.54875
0.213,7.656667
0.214,7.7591667
0.215,7.8487496
0.216,7.9404163
0.217,8.0625
0.218,8.164583
0.219,8.249583
0.22,8.325
0.221,8.420833
0.222,8.51125
0.223,8.605834
0.224,8.702916
0.225,8.814584
0.226,8.922084
0.227,9.00875
0.228,9.102917
0.229,9.197499
0.23,9.307083
0.231,9.40375
0.232,9.52375
0.233,9.641251
0.234,9.764167
0.235,9.87625
0.236,9.992084
0.237,10.104167
0.238,10.19875
0.239,10.313749
0.24,10.4375
0.241,10.581667
0.242,10.672501
0.243,10.806667
0.244,10.936252
0.245,11.095417
0.246,11.198334
0.247,11.289166
0.248,11.399583
0.249,11.520416
0.25,11.661667
0.251,11.8029175
0.252,11.938334
0.253,12.070834
0.254,12.206668
0.255,12.335834
0.256,12.490833
0.257,12.600417
0.258,12.77
0.259,12.922084
0.26,13.077916
0.261,13.223332
0.262,13.354167
0.263,13.5125
0.264,13.677083
0.265,13.80125
0.266,13.959583
0.267,14.078751
0.268,14.262084
0.269,14.42875
0.27,14.607917
0.271,14.780833
0.272,14.940417
0.273,15.110416
0.274,15.256251
0.275,15.419167
0.276,15.568751
0.277,15.7375
0.278,15.905
0.279,16.105833
0.28,16.308332
0.281,16.511665
0.282,16.70125
0.283,16.861666
0.284,17.032917
0.285,17.194166
0.286,17.372084
0.287,17.550835
0.288,17.746666
0.289,17.954168
0.29,18.150417
0.291,18.345415
0.292,18.52875
0.293,18.715
0.294,18.900833
0.295,19.09375
0.296,19.305418
0.297,19.514168
0.298,19.722502
0.299,19.920416
0.3,20.10375
0.301,20.28375
0.302,20.478334
0.303,20.67125
0.304,20.903334
0.305,21.104166
0.306,21.339584
0.307,21.556665
0.308,21.763334
0.309,21.992083
0.31,22.154167
0.311,22.355415
0.312,22.541666
0.313,22.790419
0.314,23.0325
0.315,23.227915
0.316,23.443335
0.317,23.658333
0.318,23.907501
0.319,24.132917
0.32,24.358332
0.321,24.5675
0.322,24.799166
0.323,25.012085
0.324,25.26375
0.325,25.500834
0.326,25.753334
0.327,26.002085
0.328,26.232084
0.329,26.465836
0.33,26.678335
0.331,26.915419
0.332,27.158335
0.333,27.418753
0.334,27.685835
0.335,27.9425
0.336,28.1975
0.337,28.460833
0.338,28.667084
0.339,28.873331
0.34,29.090416
0.341,29.370417
0.342,29.656668
0.343,29.91375
0.344,29.504583
0.345,29.195417
0.346,28.925001
0.347,29.320833
0.348,29.654167
0.349,29.987501
0.35,30.35
0.351,30.691666
0.352,31.029167
0.353,31.341667
0.354,31.645834
0.355,31.966667
0.356,32.258335
0.357,32.57083
0.358,32.854168
0.359,33.179165
0.36,33.491665
0.361,33.80417
0.362,34.133335
0.363,34.454166
0.364,34.770832
0.365,35.075
0.366,35.358334
0.367,35.675
0.368,35.991665
0.369,36.329163
0.37,36.675
0.371,36.979168
0.372,37.30417
0.373,37.61667
0.374,37.92917
0.375,38.245834
0.376,38.533337
0.377,38.87917
0.378,39.179165
0.379,39.520832
0.38,39.866665
0.381,40.204166
0.382,40.537502
0.383,40.8375
0.384,41.208332
0.385,41.570835
0.386,41.925
0.387,42.25417
0.388,42.55417
0.389,42.899998
0.39,43.233337
0.391,43.587498
0.392,43.920834
0.393,44.25
0.394,44.591663
0.395,44.94583
0.396,45.304165
0.397,45.662495
0.398,46.0
0.399,46.350002
0.4,46.704166
0.401,47.066666
0.402,47.36667
0.403,47.69583
0.404,48.020832
0.405,48.395832
0.406,48.729168
0.407,49.066666
0.408,49.408337
0.409,49.774998
0.41,50.12917
0.411,50.4375
0.412,50.75833
0.413,51.11667
0.414,51.533337
0.415,51.891666
0.416,52.245834
0.417,52.620834
0.418,52.99167
0.419,53.341663
0.42,53.629166
0.421,53.9375
0.422,54.25
0.423,54.604168
0.424,54.95
0.425,55.308334
0.426,55.645832
0.427,55.987503
0.428,56.329166
0.429,56.645832
0.43,56.979168
0.431,57.291668
0.432,57.662502
0.433,58.0125
0.434,58.370834
0.435,58.716663
0.436,59.0625
0.437,59.404163
0.438,59.683334
0.439,59.95
0.44,60.24167
0.441,60.56667
0.442,60.904163
0.443,61.225002
0.444,61.55417
0.445,61.883335
0.446,62.212505
0.447,62.441666
0.448,62.720837
0.449,63.00833
0.45,63.399998
0.451,63.720837
0.452,64.004166
0.453,64.299995
0.454,64.604164
0.455,64.89166
0.456,65.17917
0.457,65.40417
0.458,65.69583
0.459,65.90417
0.46,66.23334
0.461,66.520836
0.462,66.85
0.463,67.1125
0.464,67.375
0.465,67.645836
0.466,67.84583
0.467,68.066666
0.468,68.2625
0.469,68.549995
0.47,68.80416
0.471,69.07083
0.472,69.308334
0.473,69.55
0.474,69.81667
0.475,70.058334
0.476,70.316666
0.477,70.549995
0.478,70.7875
0.479,71.041664
0.48,71.28333
0.481,71.5625
0.482,71.775
0.483,72.025
0.484,72.1625
0.485,72.325005
0.486,72.44583
0.487,72.645836
0.488,72.850006
0.489,73.0875
0.49,73.3375
0.491,73.55417
0.492,73.73334
0.493,73.875
0.494,74.0375
0.495,74.21667
0.496,74.441666
0.497,74.61667
0.498,74.81667
0.499,74.975
0.5,75.19583
0.501,75.354164
0.502,75.479164
0.503,75.59583
0.504,75.725
0.505,75.90417
0.506,76.075
0.507,76.275
0.508,76.49167
0.509,76.6875
0.51,76.84583
0.511,76.9625
0.512,77.0875
0.513,77.21667
0.514,77.4
0.515,77.57083
0.516,77.7375
0.517,77.87917
0.518,78.00833
0.519,78.183334
0.52,78.299995
0.521,78.362495
0.522,78.387505
0.523,78.49583
0.524,78.65417
0.525,78.79583
0.526,78.899994
0.527,79.00834
0.528,79.14167
0.529,79.2625
0.53,79.333336
0.531,79.39166
0.532,79.47083
0.533,79.604164
0.534,79.729164
0.535,79.825005
0.536,79.9125
0.537,80.01666
0.538,80.1125
0.539,80.20417
0.54,80.262505
0.541,80.35
0.542,80.475006
0.543,80.5875
0.544,80.6875
0.545,80.770836
0.546,80.875
0.547,80.979164
0.548,81.00833
0.549,81.05833
0.55,81.075005
0.551,81.1625
0.552,81.23334
0.553,81.325005
0.554,81.395836
0.555,81.450005
0.556,81.5375
0.557,81.55
0.558,81.587494
0.559,81.59583
0.56,81.68749
0.561,81.76666
0.562,81.82499
0.563,81.875
0.564,81.9125
0.565,82.00417
0.566,82.0375
0.567,82.075
0.568,82.05833
0.569,82.112495
0.57,82.15833
0.571,82.24167
0.572,82.32917
0.573,82.395836
0.574,82.46667
0.575,82.48333
0.576,82.541664
0.577,82.5875
0.578,82.6375
0.579,82.708336
0.58,82.737495
0.581,82.850006
0.582,82.879166
0.583,82.93333
0.584,82.92917
0.585,82.93333
0.586,82.94583
0.587,82.94583
0.588,82.987495
0.589,83.07083
0.59,83.15417
0.591,83.245834
0.592,83.30834
0.593,83.35
0.594,83.32083
0.595,83.274994
0.596,83.29584
0.597,83.395836
0.598,83.47083
0.599,83.50834
0.6,83.55
0.601,83.54583
0.602,83.6
0.603,83.5625
0.604,83.604164
0.605,83.61667
0.606,83.68334
0.607,83.75
0.608,83.770836
0.609,83.82916
0.61,83.87917
0.611,83.94167
0.612,83.916664
0.613,83.916664
0.614,83.92917
0.615,84.0125
0.616,84.05833
0.617,84.104164
0.618,84.14166
0.619,84.174995
0.62,84.22083
0.621,84.20417
0.622,84.2375
0.623,84.25833
0.624,84.3625
0.625,84.424995
0.626,84.47083
0.627,84.525
0.628,84.575
0.629,84.65833
0.63,84.625
0.631,84.61667
0.632,84.61667
0.633,84.68333
0.634,84.75833
0.635,84.808334
0.636,84.85833
0.637,84.916664
0.638,84.987495
0.639,85.012505
0.64,85.07083
0.641,85.112495
0.642,85.212494
0.643,85.262505
0.644,85.325
0.645,85.42083
0.646,85.49583
0.647,85.6
0.648,85.658325
0.649,85.67917
0.65,85.70416
0.651,85.78333
0.652,85.92917
0.653,86.05833
0.654,86.15417
0.655,86.225
0.656,86.30833
0.657,86.4
0.658,86.49167
0.659,86.55833
0.66,86.64166
0.661,86.75
0.662,86.84583
0.663,86.92501
0.664,87.0
0.665,87.07083
0.666,87.17501
0.667,87.19167
0.668,87.25834
0.669,87.26666
0.67,87.38333
0.671,87.49583
0.672,87.62917
0.673,87.74167
0.674,87.8375
0.675,87.958336
0.676,88.00834
0.677,88.075005
0.678,88.145836
0.679,88.26667
0.68,88.35833
0.681,88.45416
0.682,88.57083
0.683,88.69584
0.684,88.82916
0.685,88.912506
0.686,89.03333
0.687,89.137505
0.688,89.29583
0.689,89.42084
0.69,89.55417
0.691,89.700005
0.692,89.8375
0.693,89.9625
0.694,90.01666
0.695,90.100006
0.696,90.17501
0.697,90.3125
0.698,90.450005
0.699,90.5875
0.7,90.73751
0.701,90.85
0.702,91.01666
0.703,91.1
0.704,91.19167
0.705,91.24166
0.706,91.387505
0.707,91.55417
0.708,91.729164
0.709,91.899994
0.71,92.075005
0.711,92.229164
0.712,92.354164
0.713,92.450005
0.714,92.583336
0.715,92.70417
0.716,92.887505
0.717,93.025
0.718,93.200005
0.719,93.35
0.72,93.479164
0.721,93.63749
0.722,93.70416
0.723,93.84167
0.724,93.93334
0.725,94.1625
0.726,94.3375
0.727,94.49167
0.728,94.61667
0.729,94.791664
0.73,94.97083
0.731,95.112495
0.732,95.229164
0.733,95.37917
0.734,95.55833
0.735,95.75417
0.736,95.9125
0.737,96.075005
0.738,96.237495
0.739,96.416664
0.74,96.51666
0.741,96.60834
0.742,96.716675
0.743,96.875
0.744,97.0875
0.745,97.229164
0.746,97.387505
0.747,97.45416
0.748,97.60833
0.749,97.6875
0.75,97.78333
0.751,97.90833
0.752,98.07916
0.753,98.229164
0.754,98.35
0.755,98.48333
0.756,98.65833
0.757,98.8125
0.758,98.887505
0.759,98.987495
0.76,99.083336
0.761,99.25833
0.762,99.42084
0.763,99.55833
0.764,99.71667
0.765,99.8375
0.766,100.0
0.767,100.07083
0.768,100.15833
0.769,100.262505
0.77,100.362495
0.771,100.51666
0.772,100.64167
0.773,100.825005
0.774,100.96667
0.775,101.06666
0.776,101.174995
0.777,101.2125
0.778,101.30833
0.779,101.37083
0.78,101.53333
0.781,101.68333
0.782,101.89167
0.783,102.04583
0.784,102.20416
0.785,102.333336
0.786,102.44583
0.787,102.50417
0.788,102.57916
0.789,102.67084
0.79,102.791664
0.791,102.895836
0.792,103.012505
0.793,103.14166
0.794,103.2875
0.795,103.33749
0.796,103.395836
0.797,103.43333
0.798,103.55001
0.799,103.6625
0.8,103.762505
0.801,103.89166
0.802,104.012505
0.803,104.1625
0.804,104.22083
0.805,104.283325
0.806,104.337494
0.807,104.475
0.808,104.5875
0.809,104.69167
0.81,104.76666
0.811,104.862495
0.812,104.97083
0.813,105.012505
0.814,105.07916
0.815,105.13333
0.816,105.24167
0.817,105.2875
0.818,105.38334
0.819,105.48334
0.82,105.60834
0.821,105.67917
0.822,105.73334
0.823,105.779175
0.824,105.825005
0.825,105.916664
0.826,106.00833
0.827,106.07084
0.828,106.137505
0.829,106.20416
0.83,106.274994
0.831,106.2875
0.832,106.34167
0.833,106.375
0.834,106.479164
0.835,106.53333
0.836,106.57916
0.837,106.63333
0.838,106.68333
0.839,106.79166
0.84,106.85416
0.841,106.88333
0.842,106.895836
0.843,106.90417
0.844,106.9375
0.845,106.99583
0.846,107.05001
0.847,107.125
0.848,107.17084
0.849,107.25
0.85,107.25
0.851,107.26667
0.852,107.25417
0.853,107.30417
0.854,107.34167
0.855,107.39166
0.856,107.424995
0.857,107.470825
0.858,107.5
0.859,107.51249
0.86,107.5
0.861,107.49583
0.862,107.54999
0.863,107.59167
0.864,107.649994
0.865,107.666664
0.866,107.72083
0.867,107.79584
0.868,107.787506
0.869,107.770836
0.87,107.77917
0.871,107.86666
0.872,107.950005
0.873,107.96667
0.874,107.96667
0.875,108.00833
0.876,108.012505
0.877,108.037506
0.878,108.025
0.879,108.025
0.88,108.104164
0.881,108.13334
0.882,108.2125
0.883,108.25833
0.884,108.3125
0.885,108.32916
0.886,108.229164
0.887,108.220825
0.888,108.20416
0.889,108.287506
0.89,108.333336
0.891,108.38334
0.892,108.4
0.893,108.424995
0.894,108.424995
0.895,108.4125
0.896,108.37083
0.897,108.39166
0.898,108.43333
0.899,108.4625
0.9,108.48751
0.901,108.50833
0.902,108.57084
0.903,108.604164
0.904,108.645836
0.905,108.65833
0.906,108.654175
0.907,108.65
0.908,108.674995
0.909,108.65
0.91,108.6875
0.911,108.72083
0.912,108.82083
0.913,108.85833
0.914,108.82499
0.915,108.79583
0.916,108.791664
0.917,108.825005
0.918,108.89167
0.919,108.912506
0.92,108.95417
0.921,108.966675
0.922,109.012505
0.923,108.98334
0.924,108.98334
0.925,108.970825
0.926,109.041664
0.927,109.06666
0.928,109.125
0.929,109.15
0.93,109.21667
0.931,109.25
0.932,109.262505
0.933,109.275
0.934,109.28333
0.935,109.36251
0.936,109.416664
0.937,109.47083
0.938,109.549995
0.939,109.583336
0.94,109.6625
0.941,109.61668
0.942,109.62917
0.943,109.63751
0.944,109.75001
0.945,109.833336
0.946,109.887505
0.947,109.899994
0.948,109.96665
0.949,110.01666
0.95,110.04584
0.951,110.04584
0.952,110.095825
0.953,110.19583
0.954,110.32916
0.955,110.37917
0.956,110.4375
0.957,110.462494
0.958,110.55417
0.959,110.5625
0.96,110.5625
0.961,110.57916
0.962,110.67084
0.963,110.775
0.964,110.82083
0.965,110.887505
0.966,111.0
0.967,111.104164
0.968,111.19167
0.969,111.19167
0.97,111.24166
0.971,111.325005
0.972,111.39166
0.973,111.487495
0.974,111.55416
0.975,111.6625
0.976,111.7875
0.977,111.87917
0.978,111.92917
0.979,111.958336
0.98,112.0
0.981,112.12917
0.982,112.25833
0.983,112.375
0.984,112.50833
0.985,112.62083
0.986,112.74167
0.987,112.75417
0.988,112.82916
0.989,112.90417
0.99,113.0625
0.991,113.19583
0.992,113.26249
0.993,113.36667
0.994,113.47083
0.995,113.645836
0.996,113.7125
0.997,113.82916
0.998,113.92084
0.999,114.11667
1.0,114.23751
1.001,114.4
1.002,114.51666
1.003,114.708336
1.004,114.88334
1.005,114.94999
1.006,114.987495
1.007,115.033325
1.008,115.220825
1.009,115.40833
1.01,115.64166
1.011,115.854164
1.012,115.975
1.013,116.10834
1.014,116.216675
1.015,116.350006
1.016,116.512505
1.017,116.70416
1.018,116.93334
1.019,117.104164
1.02,117.29584
1.021,117.466675
1.022,117.63749
1.023,117.73334
1.024,117.86666
1.025,117.98334
1.026,118.166664
1.027,118.38749
1.028,118.57917
1.029,118.783325
1.03,118.96667
1.031,119.19583
1.032,119.416664
1.033,119.57916
1.034,119.73334
1.035,119.87083
1.036,120.0625
1.037,120.26249
1.038,120.51249
1.039,120.70416
1.04,120.908325
1.041,121.11667
1.042,121.32084
1.043,121.49583
1.044,121.67501
1.045,121.9
1.046,122.19166
1.047,122.45416
1.048,122.70416
1.049,122.924995
1.05,123.12916
1.051,123.32083
1.052,123.487495
1.053,123.67084
1.054,123.9125
1.055,124.1625
1.056,124.424995
1.057,124.67916
1.058,124.92084
1.059,125.17917
1.06,125.4
1.061,125.65
1.062,125.9
1.063,126.17084
1.064,126.46667
1.065,126.76666
1.066,127.09167
1.067,127.42501
1.068,127.73333
1.069,127.95416
1.07,128.16249
1.071,128.37917
1.072,128.7
1.073,129.00835
1.074,129.32916
1.075,129.625
1.076,129.91667
1.077,130.22499
1.078,130.4875
1.079,130.75833
1.08,131.04167
1.081,131.32916
1.082,131.67499
1.083,131.99583
1.084,132.36249
1.085,132.7
1.086,133.02917
1.087,133.29167
1.088,133.55833
1.089,133.85834
1.09,134.24165
1.091,134.6125
1.092,134.99167
1.093,135.34999
1.094,135.71251
1.095,136.02916
1.096,136.4125
1.097,136.69583
1.098,137.03749
1.099,137.33333
1.1,137.74165
1.101,138.0625
1.102,138.40417
1.103,138.75417
1.104,139.16249
1.105,139.55415
1.106,139.85832
1.107,140.17917
1.108,140.5
1.109,140.92082
1.11,141.33333
1.111,141.76666
1.112,142.21667
1.113,142.62083
1.114,143.02916
1.115,143.3375
1.116,143.65416
1.117,144.0
1.118,144.40834
1.119,144.83333
1.12,145.22083
1.121,145.6375
1.122,146.10417
1.123,146.57082
1.124,146.95833
1.125,147.33333
1.126,147.70416
1.127,148.14166
1.128,148.57918
1.129,149.05415
1.13,149.57085
1.131,150.05833
1.132,150.47499
1.133,150.85417
1.134,151.22084
1.135,151.6875
1.136,152.11665
1.137,152.66667
1.138,153.15
1.139,153.70416
1.14,154.17915
1.141,154.67499
1.142,155.04584
1.143,155.47917
1.144,155.87917
1.145,156.41667
1.146,156.91667
1.147,157.45833
1.148,158.05
1.149,158.63333
1.15,159.22499
1.151,159.58334
1.152,159.97917
1.153,160.4125
1.154,160.96251
1.155,161.50835
1.156,162.02916
1.157,162.60417
1.158,163.175
1.159,163.72917
1.16,164.33333
1.161,164.84166
1.162,165.375
1.163,165.90833
1.164,166.575
1.165,167.25832
1.166,167.85
1.167,168.40834
1.168,168.96667
1.169,169.52917
1.17,170.05
1.171,170.57085
1.172,171.21251
1.173,171.92499
1.174,172.65833
1.175,173.35417
1.176,174.0
1.177,174.65001
1.178,175.28752
1.179,175.83751
1.18,176.375
1.181,176.97083
1.182,177.69167
1.183,178.47083
1.184,179.23332
1.185,180.01668
1.186,180.76668
1.187,181.46667
1.188,182.10417
1.189,182.75835
1.19,183.48334
1.191,184.33333
1.192,185.20833
1.193,186.075
1.194,186.875
1.195,187.69167
1.196,188.52917
1.197,189.27501
1.198,190.07916
1.199,190.90417
1.2,191.83751
1.201,192.72083
1.202,193.57916
1.203,194.49585
1.204,195.43335
1.205,196.43335
1.206,197.39583
1.207,198.32501
1.208,199.21667
1.209,200.18333
1.21,201.1125
1.211,202.1375
1.212,203.14583
1.213,204.28749
1.214,205.3875
1.215,206.35417
1.216,207.27083
1.217,208.16249
1.218,209.29167
1.219,210.43333
1.22,211.54582
1.221,212.6375
1.222,213.72917
1.223,214.94585
1.224,216.14166
1.225,217.25835
1.226,218.375
1.227,219.42915
1.228,220.70833
1.229,222.00835
1.23,223.375
1.231,224.65834
1.232,225.87917
1.233,227.18333
1.234,228.40833
1.235,229.625
1.236,230.87083
1.237,232.25
1.238,233.71667
1.239,235.17918
1.24,236.62083
1.241,238.05833
1.242,239.40001
1.243,240.70833
1.244,242.08752
1.245,243.53749
1.246,245.05
1.247,246.52083
1.248,248.04582
1.249,249.54582
1.25,251.07916
1.251,252.65833
1.252,254.16667
1.253,255.69585
1.254,257.2125
1.255,258.84586
1.256,260.5792
1.257,262.29996
1.258,264.05417
1.259,265.80832
1.26,267.54166
1.261,269.19583
1.262,270.8375
1.263,272.55
1.264,274.42084
1.265,276.15417
1.266,277.8542
1.267,279.65002
1.268,281.51663
1.269,283.44165
1.27,285.19165
1.271,286.95834
1.272,288.70834
1.273,290.625
1.274,292.64584
1.275,294.725
1.276,296.74585
1.277,298.675
1.278,295.70834
1.279,292.72083
1.28,289.83334
1.281,291.91666
1.282,294.16666
1.283,296.375
1.284,298.54166
1.285,300.66666
1.286,302.91666
1.287,305.16666
1.288,307.45834
1.289,309.54166
1.29,311.66666
1.291,313.66666
1.292,315.95834
1.293,318.25
1.294,320.625
1.295,322.95834
